ID,ID,Latitude,Longitude
16798,16798,-21.2491347562,-159.726186258
16797,16797,-21.2546881076,-159.727413329
16796,16796,-21.2608495187,-159.731275676
16795,16795,-21.9128317851,-157.925155666
16793,16793,-11.0563172465,-171.077600425
16792,16792,-14.1778228459,-169.644668218
16791,16791,-14.1770049544,-169.692345827
16790,16790,-14.1719760218,-169.713435407
16789,16789,-14.1770933459,-169.712938192
16788,16788,-14.2409696954,-169.495394171
16787,16787,-14.2387975932,-170.698556346
16786,16786,-14.3053897644,-170.743828678
16785,16785,-14.2500370463,-170.594603676
16784,16784,-14.2546109696,-170.649600603
16783,16783,-14.2897689068,-170.578978477
16782,16782,-14.2913641765,-170.79318496
16781,16781,-14.2946031379,-170.808342447
16780,16780,-14.3033499575,-170.845440584
16779,16779,-14.3291776304,-170.872528076
16778,16778,-14.335466532,-170.867101907
16775,16775,28.3921292425,-178.300468144
16774,16774,27.9151649571,-175.733021285
16773,16773,27.7845617394,-175.860436841
16772,16772,27.7824996243,-175.836272614
16771,16771,27.7820733718,-175.839611119
16770,16770,27.7802391146,-175.811941439
16769,16769,27.7641025229,-175.90052099
16768,16768,27.7567791062,-175.939442836
16767,16767,27.751521574,-175.934816815
16766,16766,26.0672062321,-173.967066588
16765,16765,25.7698042097,-171.736566852
16764,16764,24.999763826,-167.997232406
16763,16763,23.871444506,-166.253900323
16762,16762,23.8685080771,-166.248268211
16761,16761,23.866293383,-166.287466773
16760,16760,23.8678051525,-166.243665876
16759,16759,23.8600673772,-166.222912802
16758,16758,23.8568311394,-166.220410362
16757,16757,23.8493845366,-166.325954539
16756,16756,23.8232557621,-166.231743302
16755,16755,23.8210874514,-166.227162809
16754,16754,23.8021293018,-166.23293192
16753,16753,23.7894212883,-166.203863026
16752,16752,23.7836019198,-166.21158173
16751,16751,23.7655818923,-166.264036131
16750,16750,23.7318161888,-166.168653466
16749,16749,23.7302327064,-166.16762463
16748,16748,23.7256910698,-166.16632806
16747,16747,23.6405677528,-166.173554034
16746,16746,23.5750202273,-164.702313885
16745,16745,23.0573450627,-161.922493009
16744,16744,22.0598246348,-159.526052093
16743,16743,22.0195135353,-160.096835423
16742,16742,21.8950055483,-160.155671608
16741,16741,21.8914150857,-160.230182567
16740,16740,21.4609645021,-157.974395539
16739,16739,21.7041358257,-158.010629473
16738,16738,21.6744816295,-157.925319219
16737,16737,21.6644035605,-157.923560815
16736,16736,21.6562279548,-160.542096137
16735,16735,21.660974883,-157.916717645
16734,16734,21.6525020464,-157.91441804
16733,16733,21.6510088398,-157.910572397
16732,16732,21.6077003459,-158.107555307
16731,16731,21.5891565316,-158.123112962
16730,16730,21.5649575902,-157.863561782
16729,16729,21.5638009242,-157.865508778
16728,16728,21.5641361253,-157.867902929
16727,16727,21.5613279196,-157.870649732
16726,16726,21.5618489563,-157.867893434
16725,16725,21.5112971347,-157.830170306
16724,16724,21.4788525228,-157.799231244
16723,16723,21.4740204111,-157.719691024
16722,16722,21.4715066482,-157.72204141
16721,16721,21.4655689029,-157.807853576
16720,16720,21.4637653136,-157.776234664
16719,16719,21.4362140217,-157.789197027
16718,16718,21.4339834705,-157.72041067
16717,16717,21.4017690079,-157.721747584
16716,16716,21.3937563253,-157.700576015
16715,16715,21.3893686578,-157.699228218
16714,16714,21.3658576182,-157.961216373
16713,16713,21.3666249082,-158.013972318
16712,16712,21.330694875,-157.658655925
16711,16711,21.3228336973,-157.658261441
16710,16710,21.3180692952,-157.897087429
16709,16709,21.3160495797,-157.955806894
16708,16708,21.3119680511,-157.937764052
16707,16707,21.3112246936,-157.90423767
16706,16706,21.3111932532,-157.896805732
16705,16705,21.3100948808,-157.893112028
16704,16704,21.1353932896,-157.015214645
16703,16703,21.2243031184,-157.213356159
16702,16702,21.1831413133,-156.927190074
16701,16701,21.1586261421,-156.709152539
16700,16700,21.1337659682,-156.704496545
16699,16699,20.7946931712,-156.339555404
16698,16698,20.9920467644,-156.528001038
16697,16697,20.9672163922,-156.522354718
16696,16696,20.9612032058,-156.518618277
16695,16695,20.9539550712,-156.326572891
16694,16694,20.9522813851,-156.323613317
16693,16693,20.950572969,-156.281587376
16692,16692,20.9453191144,-156.264302114
16691,16691,20.9444252899,-156.343125712
16690,16690,20.8395252282,-156.929404629
16689,16689,20.865445184,-156.132453021
16688,16688,20.7611797907,-155.979490973
16687,16687,20.758670006,-155.978644881
16686,16686,20.7442380224,-156.879580111
16685,16685,20.7313335608,-155.977855045
16684,16684,20.5520660961,-156.610751403
16683,16683,20.5163321957,-156.612500725
16682,16682,19.6002740035,-155.520346584
16681,16681,20.1961747112,-155.6999192
16680,16680,20.1960997029,-155.703457383
16679,16679,19.7340446998,-155.073077626
16678,16678,19.7312990013,-155.071365488
16677,16677,19.6639421066,-154.977709151
16676,16676,19.2681519832,-155.254697811
16675,16675,28.2038496077,-177.379567086
16674,16674,28.2051436252,-177.33150845
16673,16673,28.2041580998,-177.357732237
16672,16672,28.2036846137,-177.351387529
16669,16669,-31.4333672721,-178.899974346
16667,16667,-16.7720115481,-179.973539319
16666,16666,-21.7381774528,174.639892445
16665,16665,0.8243437292,134.302953818
16664,16664,0.9163055314,134.332492645
16654,16654,19.3096934585,166.625825245
16653,16653,19.2885912973,166.638440355
16652,16652,-13.1353197877,166.555650089
16651,16651,-13.2091923943,166.588993546
16650,16650,-13.2473081241,166.614834927
16649,16649,-13.246988282,167.637351989
16648,16648,-13.2551965206,166.576217961
16647,16647,-13.3412116981,166.630272042
16646,16646,-13.4189399483,166.686286859
16645,16645,-13.534491582,167.32481148
16644,16644,-13.596964521,167.509497366
16643,16643,-13.5975366126,167.530433208
16642,16642,-13.6140739229,167.531106045
16641,16641,-13.611324532,167.521637318
16640,16640,-13.6249070722,167.518151346
16639,16639,-13.6735571062,167.670948982
16638,16638,-13.7144469933,167.626926135
16637,16637,-13.8297554494,167.463246555
16636,16636,-13.789468074,167.548750613
16635,16635,-13.8526107522,167.693802862
16634,16634,-13.8842044138,167.595839076
16633,16633,-13.8834016276,167.612448443
16632,16632,-13.9123481473,167.542708807
16631,16631,-14.2572103949,167.507267562
16630,16630,-14.2941024828,167.793806958
16629,16629,-14.4250934409,168.043558302
16628,16628,-14.4104225185,168.061239019
16627,16627,-15.2455614126,166.855469474
16626,16626,-14.6940929114,166.552605587
16625,16625,-14.8565367037,166.523623182
16624,16624,-15.1723773013,168.16067855
16623,16623,-14.9284166799,168.141814629
16622,16622,-14.9643594091,167.124059007
16621,16621,-14.990830667,167.063344751
16620,16620,-15.0304529651,166.588880676
16619,16619,-15.0379021657,167.082014792
16618,16618,-15.0437774962,167.067511543
16617,16617,-15.0538829834,167.069089227
16616,16616,-15.0766806986,168.183588564
16615,16615,-15.0875992401,168.176384641
16614,16614,-15.1084056703,167.113100803
16613,16613,-15.1041820864,168.177474863
16612,16612,-15.1119108328,166.611018853
16611,16611,-15.1211412054,168.179016534
16610,16610,-15.1652064564,166.810695719
16609,16609,-15.1931816133,166.629404906
16608,16608,-15.2726674763,167.171699153
16607,16607,-15.3955646085,167.848248315
16606,16606,-15.2966108797,167.200135324
16605,16605,-15.3604225008,166.631233687
16604,16604,-15.3646847692,166.631835473
16603,16603,-15.3704596365,167.195384494
16602,16602,-15.3737885126,167.1812511
16601,16601,-15.3762619568,167.184172005
16600,16600,-15.3836429854,167.181136288
16599,16599,-15.3964738226,167.217763875
16598,16598,-15.3937668212,168.211080993
16597,16597,-15.39209561,167.179991009
16596,16596,-15.3920307439,167.183166676
16595,16595,-15.443054176,167.23971036
16594,16594,-15.7593277481,168.19575689
16593,16593,-15.4637747138,168.192505008
16592,16592,-15.4687774435,168.192506507
16591,16591,-15.4911027912,167.243032996
16590,16590,-15.5370947831,167.145815407
16589,16589,-15.5881844693,167.166404727
16588,16588,-15.5784165274,167.267181488
16587,16587,-15.6001311251,167.233329039
16586,16586,-15.5984359791,167.015782096
16585,16585,-15.6014178617,166.980500012
16584,16584,-15.6006213827,167.028965918
16583,16583,-15.6134149501,166.969327191
16582,16582,-15.6229144306,167.168214119
16581,16581,-15.6228360808,167.016566659
16580,16580,-15.6215475695,167.003478637
16579,16579,-15.6419932445,166.941044039
16578,16578,-15.6371760066,167.17472541
16577,16577,-15.6922083681,167.162007306
16576,16576,-15.6420239752,166.892324224
16575,16575,-15.6472812869,166.758067288
16574,16574,-15.7142589111,167.247861279
16573,16573,-15.7265996516,167.24721593
16572,16572,-15.7217777446,167.241567785
16571,16571,-16.2741050008,167.464116125
16570,16570,-15.9080538089,167.297375901
16569,16569,-15.9511958054,167.333202469
16568,16568,-15.9820330054,167.367715421
16567,16567,-15.9943055826,167.379432508
16566,16566,-16.0015764943,168.196807467
16565,16565,-16.0646677692,167.393937996
16564,16564,-16.0789103801,167.435620438
16563,16563,-16.2526197768,168.115843193
16562,16562,-16.0987635088,167.440098524
16561,16561,-16.1087973855,167.424513235
16560,16560,-16.12374547,167.444597844
16559,16559,-16.3865818229,167.375718743
16558,16558,-16.4713960687,168.221199383
16557,16557,-16.5100450729,168.324882503
16556,16556,-16.5014177812,167.811155786
16555,16555,-16.5055823818,167.431425128
16554,16554,-16.5131985016,167.785340558
16553,16553,-16.5150120758,167.791255371
16552,16552,-16.5174993487,167.787881332
16551,16551,-16.523663718,167.581080471
16550,16550,-16.5203557138,167.782316432
16549,16549,-16.5244804454,167.769626932
16548,16548,-16.5241585005,167.840149527
16547,16547,-16.5304334493,167.822258956
16546,16546,-16.5257487181,167.639786835
16545,16545,-16.5271285754,167.832600965
16544,16544,-16.5266551439,167.704718774
16543,16543,-16.5356079783,167.835816204
16542,16542,-16.5393295891,167.765327666
16541,16541,-16.5380922437,167.691927242
16540,16540,-16.5380248509,167.815669106
16539,16539,-16.5424642327,167.837844825
16538,16538,-16.5400255301,167.834605328
16537,16537,-16.5538363983,167.774572367
16536,16536,-16.5529529708,167.685408034
16535,16535,-16.7265625411,168.241977663
16534,16534,-16.5846629494,168.118499633
16533,16533,-16.5982215213,167.4603061
16532,16532,-16.8159520737,168.530991683
16531,16531,-16.8233376433,168.540406647
16530,16530,-16.827878281,168.54628565
16529,16529,-16.833475625,168.344612546
16528,16528,-16.8996170746,168.543423914
16527,16527,-16.9214049969,168.570570531
16526,16526,-16.9571553436,168.562282379
16525,16525,-16.9893595776,168.585981251
16524,16524,-17.0096114321,168.620074791
16523,16523,-16.99932724,168.609167695
16522,16522,-17.0283571194,168.578689675
16521,16521,-17.027934647,168.610844818
16520,16520,-17.0698752094,168.372941428
16519,16519,-17.1409358364,168.431247818
16518,16518,-17.2575692123,168.418899677
16517,16517,-17.2716882085,168.456229199
16516,16516,-17.4569966865,168.346929615
16515,16515,-17.4867994969,168.481375049
16514,16514,-17.4993952546,168.399942101
16513,16513,-17.5382192201,168.253267263
16512,16512,-17.5214745956,168.400209454
16511,16511,-17.6826906803,168.382341147
16510,16510,-17.6040176419,168.203958721
16509,16509,-17.6447663719,168.146226845
16508,16508,-17.7504593344,168.302902258
16507,16507,-17.7529642213,168.288452779
16506,16506,-17.7808510287,168.302914142
16505,16505,-17.8041978847,168.332908713
16504,16504,-18.8219377406,169.124851367
16503,16503,-18.7078857097,169.284624303
16502,16502,-19.2787239653,169.571021927
16501,16501,-19.4944553812,169.326338052
16500,16500,-19.5282406684,170.193259283
16499,16499,-20.1891822209,169.772070885
16498,16498,-20.2155331754,169.693964959
16497,16497,-20.2475277035,169.721241439
16496,16496,-5.6476214465,176.091966698
16495,16495,-5.6604920616,176.139607767
16494,16494,-5.6808583824,176.150330163
16493,16493,-6.1134341648,177.30311382
16492,16492,-6.3018048574,176.341237611
16491,16491,-7.2546270143,177.162886374
16490,16490,-7.266677673,177.168327398
16489,16489,-7.2695911083,177.169558701
16488,16488,-7.272767445,177.171078829
16487,16487,-7.2766803281,177.17123254
16486,16486,-7.2808658562,177.171244724
16485,16485,-7.2934088078,177.165909347
16484,16484,-7.4724951192,178.688737229
16483,16483,-7.9325800653,178.376426612
16482,16482,-7.9539407964,178.418046786
16481,16481,-7.956703149,178.419565214
16480,16480,-7.9598282799,178.422819642
16479,16479,-7.9641309177,178.426929259
16478,16478,-7.9715489675,178.429617145
16477,16477,-7.9796307639,178.425388826
16476,16476,-7.9826989306,178.422655039
16475,16475,-7.9986361142,178.409788627
16474,16474,-7.9911240978,178.343861853
16473,16473,-7.9904415707,178.335391016
16472,16472,-8.0136651347,178.396520426
16471,16471,-8.0528285778,178.378861433
16470,16470,-8.0312391236,178.306943701
16469,16469,-8.0365053538,178.316320626
16468,16468,-8.0362598778,178.312125078
16467,16467,-8.0375126919,178.321293296
16466,16466,-8.041052608,178.325239559
16465,16465,-8.4323405817,179.139193267
16464,16464,-8.4322721933,179.127366404
16463,16463,-8.4336217012,179.180641295
16462,16462,-8.4386261732,179.178849899
16461,16461,-8.4415813497,179.187088851
16460,16460,-8.5062337686,179.206303767
16459,16459,-8.4658922466,179.094516161
16458,16458,-8.4867927797,179.175732448
16457,16457,-8.4906562839,179.091606033
16456,16456,-8.5129193309,179.052148239
16455,16455,-8.5504240956,179.176675065
16454,16454,-8.5591986538,179.16040168
16453,16453,-8.5645096454,179.060405236
16452,16452,-8.5665090601,179.147426633
16451,16451,-8.5819507106,179.12655568
16450,16450,-8.5812855601,179.07625051
16449,16449,-8.6015049353,179.084596713
16448,16448,-8.6071820508,179.111212862
16447,16447,-8.6250458468,179.111387
16446,16446,-8.6329373274,179.088336756
16445,16445,-8.6404831934,179.106978128
16444,16444,-8.6408727629,179.084155706
16443,16443,-8.6437823542,179.09543542
16442,16442,-9.3542147652,179.875352877
16441,16441,-9.3425132528,179.858738222
16440,16440,-9.3443571622,179.857016318
16439,16439,-9.3459333107,179.852221911
16438,16438,-9.3484720677,179.849422886
16437,16437,-9.3701783208,179.845406149
16436,16436,-9.3779414964,179.892080658
16435,16435,-9.4032025696,179.905088669
16434,16434,-9.4195586968,179.879033555
16433,16433,-9.4208473312,179.882916878
16432,16432,-9.4229264407,179.884994468
16431,16431,-9.4269593981,179.896925348
16430,16430,-9.4280106071,179.900668744
16429,16429,-9.4306786546,179.895342404
16428,16428,-10.7690296095,179.506505231
16422,16422,-5.0039206171,159.424563198
16421,16421,-5.0098772016,159.307645429
16420,16420,-5.0258492557,159.298579853
16419,16419,-5.0574017652,159.416237824
16418,16418,-5.0591390849,159.25341036
16417,16417,-5.0697258434,159.41544193
16416,16416,-5.0762113636,159.413118389
16415,16415,-5.0892058382,159.41298669
16414,16414,-5.0901762165,159.238187821
16413,16413,-5.104243161,159.414095985
16412,16412,-5.1256698078,159.214071673
16411,16411,-5.1360653342,159.408601018
16410,16410,-5.1531025128,159.209483134
16409,16409,-5.1598582094,159.404739196
16408,16408,-5.1777423438,159.407084886
16407,16407,-5.1896064171,159.408058612
16406,16406,-5.3447300685,159.184318239
16405,16405,-5.3701846346,159.209867961
16404,16404,-5.3713685887,159.234904386
16403,16403,-5.4091991127,159.698138665
16402,16402,-5.4155486604,159.337793491
16401,16401,-5.4344875606,159.36259051
16400,16400,-5.4278281172,159.698057135
16399,16399,-5.4260663097,159.610695688
16398,16398,-5.4428118534,159.699760648
16397,16397,-5.4430138926,159.644479447
16396,16396,-5.4514801068,159.704091835
16395,16395,-5.4576596796,159.444827366
16394,16394,-5.4586491803,159.640663151
16393,16393,-5.4600286475,159.470789082
16392,16392,-5.4606789591,159.45365763
16391,16391,-5.4681530536,159.475737558
16390,16390,-5.4862151395,159.711306878
16389,16389,-5.4728717205,159.573628289
16388,16388,-5.4765708764,159.490948692
16387,16387,-5.4922545664,159.528486858
16386,16386,-5.5083270195,159.547125043
16385,16385,-5.5125549461,159.704780971
16384,16384,-5.5258139257,159.698442262
16383,16383,-5.528276256,159.577626161
16382,16382,-5.5328533755,159.585882068
16381,16381,-5.5327703579,159.691370064
16380,16380,-5.5379559905,159.598740353
16379,16379,-5.5388480286,159.61232759
16378,16378,-5.5408485325,159.623364543
16377,16377,-5.5494284441,159.662012555
16376,16376,-7.0220047285,156.928147397
16375,16375,-6.6450049828,156.615864296
16374,16374,-6.6458397369,156.101669739
16373,16373,-6.6471195156,156.567093681
16372,16372,-6.6475154705,156.110822675
16371,16371,-6.6844917297,156.094867533
16365,16365,-6.7945126846,156.014089212
16364,16364,-6.9134691872,156.070146279
16363,16363,-6.8161345868,156.137327984
16362,16362,-6.8283895095,156.516198137
16361,16361,-6.8361701588,155.970774404
16360,16360,-6.8421127646,156.164185897
16359,16359,-6.8475180596,156.172492176
16358,16358,-6.8613904013,156.144760466
16357,16357,-6.8491717766,156.132636185
16356,16356,-6.8502841446,156.182719885
16355,16355,-6.8573891425,156.964939181
16354,16354,-6.8641926262,156.093768865
16353,16353,-6.8754991231,156.022907781
16352,16352,-6.877611868,155.876083954
16351,16351,-6.8818506523,156.05056394
16350,16350,-6.8904407401,156.622066774
16349,16349,-6.8951823814,156.624100261
16348,16348,-6.8941830012,156.030824889
16347,16347,-6.896108598,155.879177599
16346,16346,-6.9007277036,155.836332895
16345,16345,-6.9037991722,155.927196908
16344,16344,-6.904608256,157.037913195
16343,16343,-6.9179684099,155.887186129
16342,16342,-6.9208470179,155.931567383
16341,16341,-6.934076127,156.050173576
16340,16340,-6.9337629099,155.940419957
16339,16339,-6.9370985579,155.942108173
16338,16338,-6.9441231418,155.907167594
16337,16337,-6.9442213422,156.032581954
16336,16336,-6.9547914942,156.016928876
16335,16335,-6.9520186526,157.101824363
16334,16334,-7.0475341243,155.769088739
16333,16333,-6.9670897545,157.109950338
16332,16332,-6.9695948387,156.019606004
16331,16331,-6.9753846896,155.756361118
16330,16330,-6.9783353142,155.562897632
16329,16329,-6.978765772,156.017500058
16328,16328,-6.9813571428,156.009908416
16327,16327,-6.9885928733,155.88527226
16326,16326,-6.9907108902,156.006531615
16325,16325,-6.9916739515,155.686643302
16324,16324,-6.9962683918,155.812197773
16323,16323,-7.0007519073,156.049054942
16322,16322,-7.0065492582,155.830869984
16321,16321,-7.0067498908,155.820079657
16320,16320,-7.0056112114,155.622285312
16319,16319,-7.0097693034,155.99772703
16318,16318,-7.0062655576,155.842088557
16317,16317,-7.0091392031,156.019178281
16316,16316,-7.0079355067,155.705424652
16315,16315,-7.0089632558,155.636602946
16314,16314,-7.0095786593,156.059996923
16313,16313,-7.0103313729,155.84149511
16312,16312,-7.0127595024,155.83556027
16311,16311,-7.0121143173,155.598306488
16310,16310,-7.0141944885,155.843743198
16309,16309,-7.0158471491,155.846228642
16308,16308,-7.0210882156,155.674740751
16307,16307,-7.0245005591,155.683007677
16306,16306,-7.0254437612,156.021675661
16305,16305,-7.0274430247,155.653186052
16304,16304,-7.0300188447,156.043348983
16303,16303,-7.0347117818,155.615988145
16302,16302,-7.0329338583,155.997491363
16301,16301,-7.0449624303,155.673187754
16300,16300,-7.0512069766,155.650584225
16299,16299,-7.0610784028,155.645947258
16298,16298,-7.0654620897,155.871337519
16297,16297,-7.0689864422,155.899988384
16296,16296,-7.0666899565,155.633735454
16295,16295,-7.0708806555,155.891674471
16294,16294,-7.0692051004,155.636237336
16293,16293,-7.0900752481,155.869930028
16292,16292,-7.1045754428,155.885313803
16291,16291,-7.0930345848,155.852162131
16290,16290,-7.0950396281,155.847888032
16289,16289,-7.1095404655,155.768949163
16288,16288,-7.1256504332,157.160058857
16287,16287,-7.1325134787,157.159998405
16286,16286,-7.1820993128,157.244585198
16285,16285,-7.264190393,157.343345553
16284,16284,-7.2758484791,157.371414939
16283,16283,-7.2966782429,157.005419863
16282,16282,-7.2996165111,157.030449989
16281,16281,-7.3132843534,157.599590542
