ID,ID,Latitude,Longitude
11334,11334,-2.653712334,150.5265962
11333,11333,-2.658852583,150.663895002
11332,11332,-2.6624889291,150.683102145
11331,11331,-2.6662533816,150.447770179
11330,11330,-2.6606132341,150.519135292
11329,11329,-2.6709244994,150.473158903
11328,11328,-2.6700564577,150.334127054
11327,11327,-2.6677614435,150.733419678
11326,11326,-2.6671082933,150.509976241
11325,11325,-2.6929859259,150.569526074
11324,11324,-2.6720631725,150.581037889
11323,11323,-2.6770449624,150.616398153
11322,11322,-2.6767630552,150.771719736
11321,11321,-2.680810473,150.734083127
11320,11320,-2.6818331855,150.63463896
11319,11319,-2.7025530091,150.708680348
11318,11318,-2.6813316002,150.588472824
11317,11317,-2.6828556808,150.57800537
11316,11316,-2.6862677176,150.754180129
11315,11315,-2.6906824051,150.85081079
11314,11314,-2.6944801534,150.762879099
11313,11313,-2.7023562813,150.64201207
11311,11311,-2.7776054206,151.954692081
11310,11310,-2.7332923414,150.668289364
11309,11309,-2.724187175,150.71332834
11308,11308,-2.731302077,147.348214682
11307,11307,-2.7369956636,147.339005176
11306,11306,-2.7378935514,150.787415552
11305,11305,-2.7845656646,152.656290164
11304,11304,-2.9261777534,152.014915085
11303,11303,-2.8423224783,146.236764733
11302,11302,-2.8486043479,146.232357633
11301,11301,-2.8707223175,146.461173264
11300,11300,-2.8948039762,147.060437574
11299,11299,-2.8966618842,146.403745831
11298,11298,-2.9522571556,150.877176466
11297,11297,-2.9099538283,151.1306289
11296,11296,-2.9104716449,146.371777874
11295,11295,-2.9152383649,146.36864768
11294,11294,-2.9177223158,146.36530539
11293,11293,-2.9209354257,146.361951419
11292,11292,-2.9261379115,146.359577828
11291,11291,-2.9308494108,146.357520805
11290,11290,-2.9341936587,146.355817316
11289,11289,-2.9537132885,152.656254046
11288,11288,-2.9706552241,150.834760018
11287,11287,-2.9934774382,150.730785366
11286,11286,-3.0349151403,152.681465108
11285,11285,-3.0303757929,152.665841195
11284,11284,-3.0331292774,152.658306541
11283,11283,-3.1229179894,152.597611011
11282,11282,-3.1016274198,142.208461189
11281,11281,-3.1083031703,154.443965546
11280,11280,-3.1151969108,154.440339945
11279,11279,-3.1158724682,154.459206405
11278,11278,-3.1222107016,142.398295035
11277,11277,-3.1272621206,142.463315359
11276,11276,-3.1254399868,154.499585191
11275,11275,-3.1330901281,154.506484199
11274,11274,-3.1408425967,154.471659342
11273,11273,-3.14628258,142.480443761
11272,11272,-3.1416667303,154.472498576
11271,11271,-3.1604269306,154.523743783
11270,11270,-3.1753410037,154.509424173
11269,11269,-3.1784178937,154.520011924
11268,11268,-3.2077331291,143.257637537
11267,11267,-3.2357586852,144.028977271
11266,11266,-3.2298400638,143.300364426
11265,11265,-3.2798269857,154.64141365
11264,11264,-3.2832715081,154.714715044
11263,11263,-3.2941610078,154.713749097
11262,11262,-3.300305715,154.714536441
11261,11261,-3.3075870731,154.714741271
11260,11260,-3.3487386105,143.556652282
11259,11259,-3.3148511599,154.657851918
11258,11258,-3.3167287781,154.715821182
11257,11257,-3.3227908719,154.663018253
11256,11256,-3.3232879144,154.714014105
11255,11255,-3.3377770195,154.671605822
11254,11254,-3.3389425466,154.722233736
11253,11253,-3.345832076,154.722443658
11252,11252,-3.3518633712,144.133524249
11251,11251,-3.3578789138,144.38924419
11250,11250,-3.35829689,154.691511781
11249,11249,-3.4141997059,154.734920314
11248,11248,-3.3843224169,153.300414477
11247,11247,-3.3758455709,153.251638327
11246,11246,-3.3808363835,143.41000827
11245,11245,-3.4167278736,143.582112695
11244,11244,-3.3857948293,153.243583887
11243,11243,-3.395385801,143.449234844
11242,11242,-3.4075477698,143.488120028
11241,11241,-3.4696555396,153.213448362
11240,11240,-3.4586869183,152.232151316
11239,11239,-3.5096474973,144.606667362
11238,11238,-3.5077809862,153.18122225
11237,11237,-3.5064367078,153.209437318
11236,11236,-3.5075149983,143.603314231
11235,11235,-3.5108470518,153.208203035
11234,11234,-3.5137896762,144.587091643
11233,11233,-3.5241992544,153.187051738
11232,11232,-3.5383897464,153.19739744
11231,11231,-3.6135313004,144.819995538
11230,11230,-3.6282356315,144.631622163
11229,11229,-3.7021195052,152.34664669
11228,11228,-3.7943419586,144.216744782
11227,11227,-3.8038731871,144.168814619
11226,11226,-3.7912358824,144.237566462
11225,11225,-3.8023127016,144.183990391
11224,11224,-3.8044263781,144.248140243
11223,11223,-3.8099444689,144.353660731
11222,11222,-3.8122433293,144.126281037
11221,11221,-3.8259331936,144.229055397
11220,11220,-3.8368792956,144.241524584
11219,11219,-3.9979433733,144.964689082
11218,11218,-4.0204304066,153.705858896
11217,11217,-4.0075079803,144.669573884
11216,11216,-4.0818415166,153.619562673
11215,11215,-4.0787829321,145.035136316
11214,11214,-4.1120760117,152.071747063
11213,11213,-4.1240409904,152.420840435
11212,11212,-4.1146115067,152.435796726
11211,11211,-4.1179257099,152.440819378
11210,11210,-4.1737800573,152.458054161
11209,11209,-5.476169872,150.614315868
11208,11208,-4.1479165423,151.572103107
11207,11207,-4.1470840068,151.568747105
11206,11206,-4.1545878075,151.572101159
11205,11205,-4.1582111624,151.570124816
11204,11204,-4.1629224722,151.575236542
11203,11203,-4.172928064,144.873260505
11202,11202,-4.1708262358,151.549156132
11201,11201,-4.1839438431,151.939946262
11200,11200,-4.1912526126,151.633778589
11199,11199,-4.2004195599,151.794602197
11198,11198,-4.2040966041,152.423335093
11197,11197,-4.2177831598,152.414311955
11196,11196,-4.2100200168,153.070237337
11195,11195,-4.2145786844,151.809176589
11194,11194,-4.2204684615,152.465168204
11193,11193,-4.2270958727,152.399730319
11192,11192,-4.2321585705,152.458639065
11191,11191,-4.2300217919,144.942273745
11190,11190,-4.2323958729,152.440318982
11189,11189,-4.2335495184,152.392748115
11188,11188,-4.2386539369,152.39688309
11187,11187,-4.243612574,152.185520937
11186,11186,-4.2439559369,152.416172401
11185,11185,-4.2704540101,152.345185574
11184,11184,-4.2708749671,152.327488326
11183,11183,-4.2966855466,145.01206611
11182,11182,-4.3071146611,145.017075991
11181,11181,-4.3919807977,154.130827143
11180,11180,-4.3721728063,154.101865628
11179,11179,-4.3803974066,154.106368828
11178,11178,-4.3944165515,145.201183643
11177,11177,-4.4470264313,159.393664075
11176,11176,-4.449584831,159.398323059
11175,11175,-4.5147437093,154.209375246
11174,11174,-4.4537551654,159.338749253
11173,11173,-4.4549401804,159.403425807
11172,11172,-4.4693689975,154.162222614
11171,11171,-4.465576608,159.410280067
11170,11170,-4.4777871142,159.421370923
11169,11169,-4.4864205284,159.428549916
11168,11168,-4.4965941115,154.165653292
11167,11167,-4.4900408241,159.435822536
11166,11166,-4.4945922079,159.331661898
11165,11165,-4.4954256993,159.444167555
11164,11164,-4.5003601696,159.451022917
11163,11163,-4.502946479,159.454552598
11162,11162,-4.5067050678,159.459158233
11161,11161,-4.5100104238,159.462472743
11160,11160,-4.5628948867,159.483665503
11159,11159,-4.6455791254,145.972860723
11158,11158,-4.5237813469,146.018318563
11157,11157,-4.5493558432,149.112208594
11156,11156,-4.5454427784,159.320808572
11155,11155,-4.5870247739,159.351901434
11154,11154,-4.5896034744,159.361232196
11153,11153,-4.5911259621,159.385058132
11152,11152,-4.5929228867,159.467925226
11151,11151,-4.5940050575,159.4138326
11150,11150,-4.5990232319,159.458231374
11149,11149,-4.6031105503,159.440112982
11148,11148,-4.6005900913,152.372918053
11147,11147,-4.607111895,152.375394405
11146,11146,-4.6180141138,149.288514244
11145,11145,-4.6254787234,149.356306708
11144,11144,-4.6276501221,149.323201889
11143,11143,-4.6399916533,149.292375529
11142,11142,-4.6439699432,149.312912887
11141,11141,-4.6801697136,149.492877355
11140,11140,-4.6674974403,155.335810548
11139,11139,-4.6826911447,149.502413803
11138,11138,-4.698814765,152.766293408
11137,11137,-4.703346567,156.938341032
11136,11136,-4.7111546562,155.428891051
11135,11135,-4.7183455694,155.432080072
11134,11134,-4.7179425103,155.4349823
11133,11133,-4.7235302567,152.774286815
11132,11132,-4.7267046455,155.306936667
11131,11131,-4.7350972597,157.026884497
11130,11130,-4.7383490001,157.029572842
11129,11129,-4.7387715895,157.027537252
11128,11128,-4.7453259132,157.032043344
11127,11127,-4.7501290932,157.034792301
11126,11126,-4.752952712,157.035831153
11125,11125,-4.7577756167,157.033582355
11124,11124,-4.7960306254,146.226601756
11123,11123,-4.7729585695,157.031884283
11120,11120,-4.7817945178,155.466520883
11119,11119,-4.8028445634,152.846466783
11118,11118,-4.809247553,145.755432146
11117,11117,-4.8174400885,155.466185747
11116,11116,-4.8249171061,152.847241635
11115,11115,-4.8278314479,145.778138632
11114,11114,-4.8320345682,152.908669613
11113,11113,-4.8918272952,149.141465515
11112,11112,-4.8695178812,149.128150372
11111,11111,-4.922649185,151.173397557
11110,11110,-4.8996930815,151.047405086
11109,11109,-4.9002805838,151.069706194
11108,11108,-4.9098529096,151.366869994
11107,11107,-4.9437666165,151.452522431
11106,11106,-4.9590616354,151.208284931
11105,11105,-4.9737587819,151.979987285
11104,11104,-4.988532795,145.794270365
11103,11103,-4.9929201674,145.794572278
11102,11102,-4.9969374648,145.794635283
11101,11101,-5.0050353628,145.795414083
11100,11100,-5.2242682705,154.626288609
11099,11099,-5.0079169667,145.795408725
11098,11098,-5.0112763883,145.796231012
11097,11097,-5.0204190484,145.797746378
11096,11096,-5.088882104,145.819472464
11095,11095,-5.0833431452,145.79752827
11094,11094,-5.0891790264,150.191244328
11093,11093,-5.0898523196,145.807798739
11092,11092,-5.0921079027,150.199165372
11091,11091,-5.1194918802,146.95841985
11090,11090,-5.1079220167,145.806250146
11089,11089,-5.1083485203,154.561233672
11088,11088,-5.1112770016,145.805387891
11087,11087,-5.1145890008,145.805398838
11086,11086,-5.1170660226,154.557395542
11085,11085,-5.1247225775,145.806108658
11084,11084,-5.1246137003,154.554600655
11083,11083,-5.1280871528,154.549737898
11082,11082,-5.132639803,145.805019662
11081,11081,-5.1332551951,145.812585639
11080,11080,-5.1345932379,145.801222429
11079,11079,-5.1366748961,145.820841025
11078,11078,-5.1365801877,145.805106089
11077,11077,-5.1387710644,145.81249349
11076,11076,-5.1458045872,145.807191296
11075,11075,-5.1504531848,154.508750101
11074,11074,-5.1537736357,154.56165491
11073,11073,-5.1546181871,145.78957647
11072,11072,-5.1579416728,145.804577606
11071,11071,-5.1722212898,154.512569009
11070,11070,-5.1719319717,145.839593714
11069,11069,-5.173373472,145.807891049
11068,11068,-5.1758534381,154.540002298
11067,11067,-5.1781213344,145.829475744
11066,11066,-5.176970341,145.802387203
11065,11065,-5.1829228209,145.801652622
11064,11064,-5.1877150771,145.80494655
11063,11063,-5.2009224347,145.819282756
11062,11062,-5.1966823299,145.805818871
11061,11061,-5.2063016727,154.52280674
11060,11060,-5.2032302544,145.803120457
11059,11059,-5.2070530063,150.376732983
11058,11058,-5.3252515459,147.102719346
11057,11057,-5.2087562958,145.796639299
11056,11056,-5.2197596396,154.557229864
11055,11055,-5.2350113139,150.100835571
11054,11054,-5.2404248547,150.084581699
11053,11053,-5.2466889046,145.791091666
11052,11052,-5.2582281992,145.78605442
11051,11051,-5.2764132553,150.067769054
11050,11050,-5.3156059792,147.588886908
11049,11049,-5.2873213754,154.555507302
11048,11048,-5.2870485212,150.042736833
11047,11047,-5.3049585659,150.071711557
11046,11046,-5.2926939652,154.558691176
11045,11045,-5.2950134685,150.093771337
11044,11044,-5.2954212589,150.104571671
11043,11043,-5.295445053,154.559173522
11042,11042,-5.2979387574,154.560414334
11041,11041,-5.3004275947,145.779379731
11040,11040,-5.2992004663,147.54166867
11039,11039,-5.3073451252,154.542715592
11038,11038,-5.3076870188,149.916991321
11037,11037,-5.3408969654,154.558677804
11036,11036,-5.3287810938,150.057921208
11035,11035,-5.3413354996,150.052698898
11034,11034,-5.3583696099,150.488975305
11033,11033,-5.3616771724,150.058344362
11032,11032,-5.3690472919,150.060015847
11031,11031,-5.4110724555,148.081300834
11030,11030,-5.3906222013,154.574975624
11029,11029,-6.2276374251,155.308931424
11028,11028,-5.4163586997,150.8076809
11027,11027,-5.4254608502,148.972065502
11026,11026,-5.4258481509,154.573306796
11025,11025,-5.4291674334,150.791245108
11024,11024,-5.4313335235,154.572415112
11023,11023,-5.4303621678,149.643990303
11022,11022,-5.4393738594,149.682168308
11021,11021,-5.4412505412,154.646675836
11020,11020,-5.4416946494,149.673748616
11019,11019,-5.4468134142,154.666293229
11018,11018,-5.4460355888,154.647534254
11017,11017,-5.4483571796,149.638736588
11016,11016,-5.4496048372,154.670818887
11015,11015,-5.4508475432,154.652890235
11014,11014,-5.4529491186,154.672478769
11013,11013,-5.4560346483,150.832509728
11012,11012,-5.4546068178,149.084587135
11011,11011,-5.4700008734,154.632716882
11010,11010,-5.6368123604,147.919439954
11009,11009,-5.4629323928,148.942498302
11008,11008,-5.4654437306,149.709597744
11007,11007,-5.4696044254,149.687064248
11006,11006,-5.473582831,154.690478334
11005,11005,-5.4729414254,149.698771401
11004,11004,-5.4765368682,149.692487231
11003,11003,-5.472941674,148.4987724
11002,11002,-5.4795924378,150.861249739
11001,11001,-5.4804459861,150.855427603
11000,11000,-5.4800273564,149.089187433
10999,10999,-5.4849326064,154.707566505
10998,10998,-5.4859370289,149.621378686
10997,10997,-5.5332217709,154.655892789
10996,10996,-5.4946020391,154.722923711
10995,10995,-5.5003713818,149.761550453
10994,10994,-5.501680746,149.772087215
10993,10993,-5.5026805731,154.703135035
10992,10992,-5.5029624191,150.102914915
10991,10991,-5.5041850344,149.499573591
10990,10990,-5.5076707835,149.713630769
10989,10989,-5.5079645062,149.100848117
10988,10988,-5.51459514,149.452067697
10987,10987,-5.5154367453,151.693745351
10986,10986,-5.5196898239,149.437550671
10985,10985,-5.523431874,148.113995404
10984,10984,-5.5212729848,154.723762512
10983,10983,-5.5272035658,149.146154922
10982,10982,-5.5279440976,154.712919034
10981,10981,-5.53084825,154.627490734
10980,10980,-5.5350291528,154.604989932
10979,10979,-5.5357450623,154.640170986
10978,10978,-5.5375073718,154.715005303
10977,10977,-5.5391918434,149.407070968
10976,10976,-5.5459287627,151.647510437
10975,10975,-5.5446176572,154.735401643
10974,10974,-5.544610293,154.69042212
10973,10973,-5.5496096524,154.694587696
10972,10972,-5.5496111466,154.718750803
10971,10971,-5.5505411424,154.610958918
10970,10970,-5.5513215474,154.645965194
10969,10969,-5.5512748173,149.237090779
10968,10968,-5.5543601013,154.701438849
10967,10967,-5.5550278027,154.597503662
10966,10966,-5.5591609377,154.704839861
10965,10965,-5.5566948314,154.59834193
10964,10964,-5.5582549252,154.653521824
10963,10963,-5.5596060897,149.293738665
10962,10962,-5.5617056923,154.710837935
10961,10961,-5.5637749281,154.714600366
10960,10960,-5.5654427531,154.653749051
10959,10959,-5.5708046178,151.740847404
10958,10958,-5.5667066312,154.708331828
10957,10957,-5.5754709705,155.078822854
10956,10956,-5.5700004458,154.71581275
10955,10955,-5.572941737,151.746646181
10954,10954,-5.5737733966,154.703343161
10953,10953,-5.5783712435,154.70521765
10952,10952,-5.5794832733,154.638212338
10951,10951,-5.587105535,154.712082593
10950,10950,-5.5921568205,154.695427394
10949,10949,-5.5977051679,154.70822035
10948,10948,-5.6052034623,154.657773713
10947,10947,-5.6087555757,154.62625271
10946,10946,-5.6279175395,151.486222773
10945,10945,-5.6283743257,151.490409449
10944,10944,-5.6866721024,155.133724251
10943,10943,-5.6908705528,151.467073279
10942,10942,-5.6933624149,151.473750678
10941,10941,-5.6966639133,155.135801801
10940,10940,-5.7029383163,154.642075965
10939,10939,-5.7133842926,154.642992755
10938,10938,-5.7129418604,155.151237488
10937,10937,-5.716661052,154.631232984
10936,10936,-5.7325062114,154.569134306
10935,10935,-5.7348662939,154.604336797
10934,10934,-5.7812531309,154.664167647
10933,10933,-5.7904453072,147.94440023
10932,10932,-5.7983519924,147.966664576
10931,10931,-5.8000391271,148.050835865
10930,10930,-5.8032985814,147.971149737
10929,10929,-5.8062806562,147.977084755
10928,10928,-5.8083643615,147.983748527
10927,10927,-5.8137599354,154.717078434
10926,10926,-5.822852017,147.985792795
10925,10925,-5.8333486676,148.03291492
10924,10924,-5.834629864,148.018717589
10923,10923,-5.8346054049,147.989599884
10922,10922,-5.8358691388,148.00497545
10921,10921,-5.83667588,148.034558045
10920,10920,-5.8375017415,154.730829404
10919,10919,-5.8404203489,147.989582174
10918,10918,-5.8420843315,147.931243131
10917,10917,-5.8479333013,147.927094585
10916,10916,-5.8983116736,147.94035647
10915,10915,-5.8983682129,148.050402373
10914,10914,-5.9049572515,148.015137069
10913,10913,-5.9096122457,148.034618671
10912,10912,-5.9129356021,148.090388391
10911,10911,-5.9150154461,147.332414063
10910,10910,-5.9167003042,148.129592803
10909,10909,-5.9483578769,148.726656997
10908,10908,-5.9573080964,148.028755209
10907,10907,-5.9517852769,148.70075457
10906,10906,-5.9625124245,148.119576328
10905,10905,-5.973754551,148.18291055
10904,10904,-5.976268374,148.116655213
10903,10903,-5.9922473196,148.871837523
10902,10902,-5.9998003978,148.870187755
10901,10901,-6.0071493026,148.879046152
10900,10900,-6.0086002204,148.85501187
10899,10899,-6.0147428075,148.866776323
10898,10898,-6.0239717591,148.865389173
10897,10897,-6.0270243183,150.896569245
10896,10896,-6.0458848868,150.91828487
10895,10895,-6.0564627956,148.983009491
10894,10894,-6.0596109254,150.896659972
10893,10893,-6.0632929521,155.509887231
10892,10892,-6.0663624957,148.995012712
10891,10891,-6.0653625703,148.945158357
10890,10890,-6.0804092793,148.987060064
10889,10889,-6.0754405648,155.522068422
10888,10888,-6.0758520126,149.022501505
10887,10887,-6.0780700198,148.951268606
10886,10886,-6.0862639299,149.023853277
10885,10885,-6.0825335838,147.595998706
10884,10884,-6.0909367406,148.998861512
10883,10883,-6.0925073279,155.527066648
10882,10882,-6.0981178137,149.04166677
10881,10881,-6.0939857841,149.442159331
10880,10880,-6.0980993057,148.984571016
10879,10879,-6.0971344051,149.450287096
10878,10878,-6.0974027917,148.972398715
10877,10877,-6.1004688827,148.96017335
10876,10876,-6.0999251379,148.947871977
10875,10875,-6.0983475613,148.942896952
10874,10874,-6.1008438607,149.013746614
10873,10873,-6.1089167394,149.020249512
10872,10872,-6.1052100653,149.033169852
10871,10871,-6.1105996297,149.038128874
10870,10870,-6.1071036576,148.997912398
10869,10869,-6.1086404343,149.00945689
10868,10868,-6.1071065373,149.028753866
10867,10867,-6.1134992085,148.985850141
10866,10866,-6.1101944987,148.979439309
10865,10865,-6.1116849175,149.027917571
10864,10864,-6.1152602887,149.007312511
10863,10863,-6.1196542701,155.57407993
10862,10862,-6.1303577803,148.998747227
10861,10861,-6.1450234029,148.961809779
10860,10860,-6.1324947024,150.708034405
10859,10859,-6.1436097117,148.993363051
10858,10858,-6.137207535,149.054583222
10857,10857,-6.1476679901,149.012538388
10856,10856,-6.1433429005,149.0229201
10855,10855,-6.1462860194,155.569051114
10854,10854,-6.1545484135,148.999516896
10853,10853,-6.1671327522,149.01874987
10852,10852,-6.1649462506,155.632522204
10851,10851,-6.1703516315,150.559900705
10850,10850,-6.1783457947,149.042763033
10849,10849,-6.1822523154,148.945751087
10848,10848,-6.1787556886,148.926650532
10847,10847,-6.1802620828,148.913019491
10846,10846,-6.1851275035,155.670693025
10845,10845,-6.2028196326,155.661009483
10844,10844,-6.230469155,149.537645044
10843,10843,-6.2401210055,150.167280493
10842,10842,-6.246916694,149.542727333
10841,10841,-6.2466659234,155.02822383
10840,10840,-6.2487748997,155.03372882
10839,10839,-6.250429209,155.704150362
10838,10838,-6.2533652035,150.470274566
10837,10837,-6.2644967188,149.554545098
10836,10836,-6.2604416544,150.484558785
10835,10835,-6.2629979744,150.444948663
10834,10834,-6.2653832112,150.489814821
10833,10833,-6.2638243793,150.430165431
10832,10832,-6.2653521711,150.325066477
10831,10831,-6.2679059841,150.355695203
10830,10830,-6.2686531477,150.416528219
